# Pulseq sequence file
# Created by MATLAB mr toolbox

[VERSION]
major 1
minor 5
revision 0

[DEFINITIONS]
AdcRasterTime 1e-07 
BlockDurationRaster 1e-05 
FOV 0.256 0.256 0.005 
GradientRasterTime 1e-05 
Name 250719_0247_mgram_mrf_yun 
RadiofrequencyRasterTime 1e-06 
Rot_Matrix 1 0 0 0 1 0 0 0 1 
Scan_ID 507190247 

# Format of blocks:
# NUM DUR RF  GX  GY  GZ  ADC  EXT
[BLOCKS]
   1 716   0   0   0   0  1  0
   2 716   0   0   0   0  1  0
   3 716   0   0   0   0  1  0
   4 716   0   0   0   0  1  0
   5 716   0   0   0   0  1  0
   6 716   0   0   0   0  1  0
   7 716   0   0   0   0  1  0
   8 716   0   0   0   0  1  0
   9 716   0   0   0   0  1  0
  10 716   0   0   0   0  1  0
  11 716   0   0   0   0  1  0
  12 716   0   0   0   0  1  0
  13 716   0   0   0   0  1  0
  14 716   0   0   0   0  1  0
  15 716   0   0   0   0  1  0
  16 716   0   0   0   0  1  0
  17 716   0   0   0   0  1  0
  18 716   0   0   0   0  1  0
  19 716   0   0   0   0  1  0
  20 716   0   0   0   0  1  0
  21 716   0   0   0   0  1  0
  22 716   0   0   0   0  1  0
  23 716   0   0   0   0  1  0
  24 716   0   0   0   0  1  0
  25 716   0   0   0   0  1  0
  26 716   0   0   0   0  1  0
  27 716   0   0   0   0  1  0
  28 716   0   0   0   0  1  0
  29 716   0   0   0   0  1  0
  30 716   0   0   0   0  1  0
  31 716   0   0   0   0  1  0
  32 716   0   0   0   0  1  0
  33 716   0   0   0   0  1  0
  34 716   0   0   0   0  1  0
  35 716   0   0   0   0  1  0
  36 716   0   0   0   0  1  0
  37 716   0   0   0   0  1  0
  38 716   0   0   0   0  1  0
  39 716   0   0   0   0  1  0
  40 716   0   0   0   0  1  0
  41 716   0   0   0   0  1  0
  42 716   0   0   0   0  1  0
  43 716   0   0   0   0  1  0
  44 716   0   0   0   0  1  0
  45 716   0   0   0   0  1  0
  46 716   0   0   0   0  1  0
  47 716   0   0   0   0  1  0
  48 716   0   0   0   0  1  0
  49 716   0   0   0   0  1  0
  50 716   0   0   0   0  1  0
  51 716   0   0   0   0  1  0
  52 716   0   0   0   0  1  0
  53 716   0   0   0   0  1  0
  54 716   0   0   0   0  1  0
  55 716   0   0   0   0  1  0
  56 716   0   0   0   0  1  0
  57 716   0   0   0   0  1  0
  58 716   0   0   0   0  1  0
  59 716   0   0   0   0  1  0
  60 716   0   0   0   0  1  0
  61 716   0   0   0   0  1  0
  62 716   0   0   0   0  1  0
  63 716   0   0   0   0  1  0
  64 716   0   0   0   0  1  0
  65 716   0   0   0   0  1  0
  66 716   0   0   0   0  1  0
  67 716   0   0   0   0  1  0
  68 716   0   0   0   0  1  0
  69 716   0   0   0   0  1  0
  70 716   0   0   0   0  1  0
  71 716   0   0   0   0  1  0
  72 716   0   0   0   0  1  0
  73 716   0   0   0   0  1  0
  74 716   0   0   0   0  1  0
  75 716   0   0   0   0  1  0
  76 716   0   0   0   0  1  0
  77 716   0   0   0   0  1  0
  78 716   0   0   0   0  1  0
  79 716   0   0   0   0  1  0
  80 716   0   0   0   0  1  0
  81 716   0   0   0   0  1  0
  82 716   0   0   0   0  1  0
  83 716   0   0   0   0  1  0
  84 716   0   0   0   0  1  0
  85 716   0   0   0   0  1  0
  86 716   0   0   0   0  1  0
  87 716   0   0   0   0  1  0
  88 716   0   0   0   0  1  0
  89 716   0   0   0   0  1  0
  90 716   0   0   0   0  1  0
  91 716   0   0   0   0  1  0
  92 716   0   0   0   0  1  0
  93 716   0   0   0   0  1  0
  94 716   0   0   0   0  1  0
  95 716   0   0   0   0  1  0
  96 716   0   0   0   0  1  0
  97 716   0   0   0   0  1  0
  98 716   0   0   0   0  1  0
  99 716   0   0   0   0  1  0
 100 716   0   0   0   0  1  0
 101 1020   1   0   0   0  0  0
 102 176   0   0   0   1  0  0
 103 1000   0   0   0   0  0  0
 104 232   2   0   0   2  0  0
 105  84   0   0   0   3  0  0
 106   1   0   0   0   0  0  0
 107 818   0   4   5   6  2  0
 108 181   0   0   0   0  0  0
 109 232   3   0   0   2  0  0
 110  84   0   0   0   3  0  0
 111   1   0   0   0   0  0  0
 112 818   0   7   8   6  2  0
 113 178   0   0   0   0  0  0
 114 232   4   0   0   2  0  0
 115  84   0   0   0   3  0  0
 116   1   0   0   0   0  0  0
 117 818   0   9  10   6  2  0
 118 175   0   0   0   0  0  0
 119 232   5   0   0   2  0  0
 120  84   0   0   0   3  0  0
 121   1   0   0   0   0  0  0
 122 818   0  11   7   6  2  0
 123 173   0   0   0   0  0  0
 124 232   6   0   0   2  0  0
 125  84   0   0   0   3  0  0
 126   1   0   0   0   0  0  0
 127 818   0  12  13   6  2  0
 128 170   0   0   0   0  0  0
 129 232   7   0   0   2  0  0
 130  84   0   0   0   3  0  0
 131   1   0   0   0   0  0  0
 132 818   0  14  15   6  2  0
 133 167   0   0   0   0  0  0
 134 232   8   0   0   2  0  0
 135  84   0   0   0   3  0  0
 136   1   0   0   0   0  0  0
 137 818   0  16  12   6  2  0
 138 164   0   0   0   0  0  0
 139 232   9   0   0   2  0  0
 140  84   0   0   0   3  0  0
 141   1   0   0   0   0  0  0
 142 818   0  17  18   6  2  0
 143 162   0   0   0   0  0  0
 144 232  10   0   0   2  0  0
 145  84   0   0   0   3  0  0
 146   1   0   0   0   0  0  0
 147 818   0  19  20   6  2  0
 148 159   0   0   0   0  0  0
 149 232  11   0   0   2  0  0
 150  84   0   0   0   3  0  0
 151   1   0   0   0   0  0  0
 152 818   0  21  17   6  2  0
 153 156   0   0   0   0  0  0
 154 232  12   0   0   2  0  0
 155  84   0   0   0   3  0  0
 156   1   0   0   0   0  0  0
 157 818   0  22  23   6  2  0
 158 154   0   0   0   0  0  0
 159 232  13   0   0   2  0  0
 160  84   0   0   0   3  0  0
 161   1   0   0   0   0  0  0
 162 818   0  24  25   6  2  0
 163 151   0   0   0   0  0  0
 164 232  14   0   0   2  0  0
 165  84   0   0   0   3  0  0
 166   1   0   0   0   0  0  0
 167 818   0  26  22   6  2  0
 168 149   0   0   0   0  0  0
 169 232  15   0   0   2  0  0
 170  84   0   0   0   3  0  0
 171   1   0   0   0   0  0  0
 172 818   0  27  28   6  2  0
 173 146   0   0   0   0  0  0
 174 232  16   0   0   2  0  0
 175  84   0   0   0   3  0  0
 176   1   0   0   0   0  0  0
 177 818   0  29  30   6  2  0
 178 144   0   0   0   0  0  0
 179 232  17   0   0   2  0  0
 180  84   0   0   0   3  0  0
 181   1   0   0   0   0  0  0
 182 818   0  31  27   6  2  0
 183 141   0   0   0   0  0  0
 184 232  18   0   0   2  0  0
 185  84   0   0   0   3  0  0
 186   1   0   0   0   0  0  0
 187 818   0  32  33   6  2  0
 188 139   0   0   0   0  0  0
 189 232  19   0   0   2  0  0
 190  84   0   0   0   3  0  0
 191   1   0   0   0   0  0  0
 192 818   0  34  35   6  2  0
 193 136   0   0   0   0  0  0
 194 232  20   0   0   2  0  0
 195  84   0   0   0   3  0  0
 196   1   0   0   0   0  0  0
 197 818   0  36  32   6  2  0
 198 134   0   0   0   0  0  0
 199 232  21   0   0   2  0  0
 200  84   0   0   0   3  0  0
 201   1   0   0   0   0  0  0
 202 818   0  37  38   6  2  0
 203 132   0   0   0   0  0  0
 204 232  22   0   0   2  0  0
 205  84   0   0   0   3  0  0
 206   1   0   0   0   0  0  0
 207 818   0   8  39   6  2  0
 208 130   0   0   0   0  0  0
 209 232  23   0   0   2  0  0
 210  84   0   0   0   3  0  0
 211   1   0   0   0   0  0  0
 212 818   0  10  37   6  2  0
 213 129   0   0   0   0  0  0
 214 232  24   0   0   2  0  0
 215  84   0   0   0   3  0  0
 216   1   0   0   0   0  0  0
 217 818   0  40  41   6  2  0
 218 127   0   0   0   0  0  0
 219 232  25   0   0   2  0  0
 220  84   0   0   0   3  0  0
 221   1   0   0   0   0  0  0
 222 818   0  13  42   6  2  0
 223 126   0   0   0   0  0  0
 224 232  26   0   0   2  0  0
 225  84   0   0   0   3  0  0
 226   1   0   0   0   0  0  0
 227 818   0  15  40   6  2  0
 228 125   0   0   0   0  0  0
 229 232  27   0   0   2  0  0
 230  84   0   0   0   3  0  0
 231   1   0   0   0   0  0  0
 232 818   0  43  44   6  2  0
 233 124   0   0   0   0  0  0
 234 232  28   0   0   2  0  0
 235  84   0   0   0   3  0  0
 236   1   0   0   0   0  0  0
 237 818   0  18  45   6  2  0
 238 123   0   0   0   0  0  0
 239 232  29   0   0   2  0  0
 240  84   0   0   0   3  0  0
 241   1   0   0   0   0  0  0
 242 818   0  20  43   6  2  0
 243 122   0   0   0   0  0  0
 244 232  30   0   0   2  0  0
 245  84   0   0   0   3  0  0
 246   1   0   0   0   0  0  0
 247 818   0  46  47   6  2  0
 248 122   0   0   0   0  0  0
 249 232  31   0   0   2  0  0
 250  84   0   0   0   3  0  0
 251   1   0   0   0   0  0  0
 252 818   0  23  48   6  2  0
 253 122   0   0   0   0  0  0
 254 232  32   0   0   2  0  0
 255  84   0   0   0   3  0  0
 256   1   0   0   0   0  0  0
 257 818   0  25  46   6  2  0
 258 122   0   0   0   0  0  0
 259 232  33   0   0   2  0  0
 260  84   0   0   0   3  0  0
 261   1   0   0   0   0  0  0
 262 818   0  49  50   6  2  0
 263 122   0   0   0   0  0  0
 264 232  34   0   0   2  0  0
 265  84   0   0   0   3  0  0
 266   1   0   0   0   0  0  0
 267 818   0  28  51   6  2  0
 268 123   0   0   0   0  0  0
 269 232  35   0   0   2  0  0
 270  84   0   0   0   3  0  0
 271   1   0   0   0   0  0  0
 272 818   0  30  49   6  2  0
 273 124   0   0   0   0  0  0
 274 232  36   0   0   2  0  0
 275  84   0   0   0   3  0  0
 276   1   0   0   0   0  0  0
 277 818   0   4   5   6  2  0
 278 125   0   0   0   0  0  0
 279 232  37   0   0   2  0  0
 280  84   0   0   0   3  0  0
 281   1   0   0   0   0  0  0
 282 818   0  33  52   6  2  0
 283 126   0   0   0   0  0  0
 284 232  38   0   0   2  0  0
 285  84   0   0   0   3  0  0
 286   1   0   0   0   0  0  0
 287 818   0  35   4   6  2  0
 288 128   0   0   0   0  0  0
 289 232  39   0   0   2  0  0
 290  84   0   0   0   3  0  0
 291   1   0   0   0   0  0  0
 292 818   0  11   7   6  2  0
 293 129   0   0   0   0  0  0
 294 232  40   0   0   2  0  0
 295  84   0   0   0   3  0  0
 296   1   0   0   0   0  0  0
 297 818   0  38   9   6  2  0
 298 130   0   0   0   0  0  0
 299 232  41   0   0   2  0  0
 300  84   0   0   0   3  0  0
 301   1   0   0   0   0  0  0
 302 818   0  39  11   6  2  0
 303 131   0   0   0   0  0  0
 304 232  42   0   0   2  0  0
 305  84   0   0   0   3  0  0
 306   1   0   0   0   0  0  0
 307 818   0  16  12   6  2  0
 308 133   0   0   0   0  0  0
 309 232  43   0   0   2  0  0
 310  84   0   0   0   3  0  0
[RF]
1          600 1 2 0 5000 100 0 0 0 0 i
2      49.6844 3 4 0 1000 160 0 0 0 0 e
3      53.6157 3 4 0 1000 160 0 0 0 0 e
4      57.5469 3 4 0 1000 160 0 0 0 0 e
5      61.4782 3 4 0 1000 160 0 0 0 0 e
6      65.4095 3 4 0 1000 160 0 0 0 0 e
7      69.3407 3 4 0 1000 160 0 0 0 0 e
8       73.272 3 4 0 1000 160 0 0 0 0 e
9      77.2032 3 4 0 1000 160 0 0 0 0 e
10      81.0508 3 4 0 1000 160 0 0 0 0 e
11      84.9821 3 4 0 1000 160 0 0 0 0 e
12      88.8297 3 4 0 1000 160 0 0 0 0 e
13      92.6773 3 4 0 1000 160 0 0 0 0 e
14      96.5249 3 4 0 1000 160 0 0 0 0 e
15      100.373 3 4 0 1000 160 0 0 0 0 e
16       104.22 3 4 0 1000 160 0 0 0 0 e
17      108.068 3 4 0 1000 160 0 0 0 0 e
18      111.832 3 4 0 1000 160 0 0 0 0 e
19      115.596 3 4 0 1000 160 0 0 0 0 e
20       119.36 3 4 0 1000 160 0 0 0 0 e
21      123.124 3 4 0 1000 160 0 0 0 0 e
22      126.804 3 4 0 1000 160 0 0 0 0 e
23      130.484 3 4 0 1000 160 0 0 0 0 e
24      134.165 3 4 0 1000 160 0 0 0 0 e
25      137.845 3 4 0 1000 160 0 0 0 0 e
26      141.442 3 4 0 1000 160 0 0 0 0 e
27      145.122 3 4 0 1000 160 0 0 0 0 e
28      148.635 3 4 0 1000 160 0 0 0 0 e
29      152.232 3 4 0 1000 160 0 0 0 0 e
30      155.745 3 4 0 1000 160 0 0 0 0 e
31      159.258 3 4 0 1000 160 0 0 0 0 e
32      162.687 3 4 0 1000 160 0 0 0 0 e
33      166.117 3 4 0 1000 160 0 0 0 0 e
34      169.546 3 4 0 1000 160 0 0 0 0 e
35      172.892 3 4 0 1000 160 0 0 0 0 e
36      176.237 3 4 0 1000 160 0 0 0 0 e
37      179.583 3 4 0 1000 160 0 0 0 0 e
38      182.845 3 4 0 1000 160 0 0 0 0 e
39      186.107 3 4 0 1000 160 0 0 0 0 e
40      189.286 3 4 0 1000 160 0 0 0 0 e
41      192.464 3 4 0 1000 160 0 0 0 0 e
42      195.643 3 4 0 1000 160 0 0 0 0 e
43      198.738 3 4 0 1000 160 0 0 0 0 e
44      201.749 3 4 0 1000 160 0 0 0 0 e
45       204.76 3 4 0 1000 160 0 0 0 0 e
46      207.771 3 4 0 1000 160 0 0 0 0 e
47      210.699 3 4 0 1000 160 0 0 0 0 e
48      213.626 3 4 0 1000 160 0 0 0 0 e
49       216.47 3 4 0 1000 160 0 0 0 0 e
50       219.23 3 4 0 1000 160 0 0 0 0 e
51      221.991 3 4 0 1000 160 0 0 0 0 e
52      224.751 3 4 0 1000 160 0 0 0 0 e
53      227.427 3 4 0 1000 160 0 0 0 0 e
54       230.02 3 4 0 1000 160 0 0 0 0 e
55      232.613 3 4 0 1000 160 0 0 0 0 e
56      235.206 3 4 0 1000 160 0 0 0 0 e
57      237.632 3 4 0 1000 160 0 0 0 0 e
58      240.058 3 4 0 1000 160 0 0 0 0 e
59      242.483 3 4 0 1000 160 0 0 0 0 e
60      244.825 3 4 0 1000 160 0 0 0 0 e
61      247.084 3 4 0 1000 160 0 0 0 0 e
62      249.342 3 4 0 1000 160 0 0 0 0 e
63      251.517 3 4 0 1000 160 0 0 0 0 e
64      253.692 3 4 0 1000 160 0 0 0 0 e
65      255.783 3 4 0 1000 160 0 0 0 0 e
66       257.79 3 4 0 1000 160 0 0 0 0 e
67      259.798 3 4 0 1000 160 0 0 0 0 e
68      261.721 3 4 0 1000 160 0 0 0 0 e
69      263.562 3 4 0 1000 160 0 0 0 0 e
70      265.402 3 4 0 1000 160 0 0 0 0 e
71      267.158 3 4 0 1000 160 0 0 0 0 e
72      268.831 3 4 0 1000 160 0 0 0 0 e
73      270.504 3 4 0 1000 160 0 0 0 0 e
74      272.093 3 4 0 1000 160 0 0 0 0 e
75      273.683 3 4 0 1000 160 0 0 0 0 e
76      275.104 3 4 0 1000 160 0 0 0 0 e
77      276.526 3 4 0 1000 160 0 0 0 0 e
78      277.948 3 4 0 1000 160 0 0 0 0 e
79      279.203 3 4 0 1000 160 0 0 0 0 e
80      280.458 3 4 0 1000 160 0 0 0 0 e
81      281.629 3 4 0 1000 160 0 0 0 0 e
82        282.8 3 4 0 1000 160 0 0 0 0 e
83      283.887 3 4 0 1000 160 0 0 0 0 e
84      284.891 3 4 0 1000 160 0 0 0 0 e
85      285.811 3 4 0 1000 160 0 0 0 0 e
86      286.731 3 4 0 1000 160 0 0 0 0 e
87      287.567 3 4 0 1000 160 0 0 0 0 e
88       288.32 3 4 0 1000 160 0 0 0 0 e
89      288.989 3 4 0 1000 160 0 0 0 0 e
90      289.658 3 4 0 1000 160 0 0 0 0 e
91      290.244 3 4 0 1000 160 0 0 0 0 e
92      290.746 3 4 0 1000 160 0 0 0 0 e
93      291.248 3 4 0 1000 160 0 0 0 0 e
94      291.666 3 4 0 1000 160 0 0 0 0 e
95      292.001 3 4 0 1000 160 0 0 0 0 e
96      292.251 3 4 0 1000 160 0 0 0 0 e
97      292.502 3 4 0 1000 160 0 0 0 0 e
98       292.67 3 4 0 1000 160 0 0 0 0 e
99      292.753 3 4 0 1000 160 0 0 0 0 e
100      45.7532 3 4 0 1000 160 0 0 0 0 e
101      41.8219 3 4 0 1000 160 0 0 0 0 e
102  0.000479244 3 4 0 1000 160 0 0 0 0 e
103      46.8405 3 4 0 1000 160 0 0 0 0 e
104      51.7755 3 4 0 1000 160 0 0 0 0 e
105      56.7941 3 4 0 1000 160 0 0 0 0 e
106      61.8128 3 4 0 1000 160 0 0 0 0 e
107      66.7478 3 4 0 1000 160 0 0 0 0 e
108      71.7664 3 4 0 1000 160 0 0 0 0 e
109      76.7014 3 4 0 1000 160 0 0 0 0 e
110      81.6364 3 4 0 1000 160 0 0 0 0 e
111      86.5713 3 4 0 1000 160 0 0 0 0 e
112      91.5063 3 4 0 1000 160 0 0 0 0 e
113      96.4413 3 4 0 1000 160 0 0 0 0 e
114      101.376 3 4 0 1000 160 0 0 0 0 e
115      106.311 3 4 0 1000 160 0 0 0 0 e
116      111.163 3 4 0 1000 160 0 0 0 0 e
117      116.014 3 4 0 1000 160 0 0 0 0 e
118      120.865 3 4 0 1000 160 0 0 0 0 e
119      125.717 3 4 0 1000 160 0 0 0 0 e
120      135.252 3 4 0 1000 160 0 0 0 0 e
121       140.02 3 4 0 1000 160 0 0 0 0 e
122      144.787 3 4 0 1000 160 0 0 0 0 e
123      149.471 3 4 0 1000 160 0 0 0 0 e
124      154.156 3 4 0 1000 160 0 0 0 0 e
125       158.84 3 4 0 1000 160 0 0 0 0 e
126       163.44 3 4 0 1000 160 0 0 0 0 e
127       168.04 3 4 0 1000 160 0 0 0 0 e
128      172.641 3 4 0 1000 160 0 0 0 0 e
129      177.158 3 4 0 1000 160 0 0 0 0 e
130      181.674 3 4 0 1000 160 0 0 0 0 e
131      190.541 3 4 0 1000 160 0 0 0 0 e
132      194.974 3 4 0 1000 160 0 0 0 0 e
133      199.323 3 4 0 1000 160 0 0 0 0 e
134      203.589 3 4 0 1000 160 0 0 0 0 e
135      207.855 3 4 0 1000 160 0 0 0 0 e
136      212.121 3 4 0 1000 160 0 0 0 0 e
137      216.303 3 4 0 1000 160 0 0 0 0 e
138      220.485 3 4 0 1000 160 0 0 0 0 e
139      224.584 3 4 0 1000 160 0 0 0 0 e
140      228.682 3 4 0 1000 160 0 0 0 0 e
141      232.697 3 4 0 1000 160 0 0 0 0 e
142      236.628 3 4 0 1000 160 0 0 0 0 e
143       240.56 3 4 0 1000 160 0 0 0 0 e
144      244.407 3 4 0 1000 160 0 0 0 0 e
145      248.255 3 4 0 1000 160 0 0 0 0 e
146      252.019 3 4 0 1000 160 0 0 0 0 e
147      255.699 3 4 0 1000 160 0 0 0 0 e
148      259.379 3 4 0 1000 160 0 0 0 0 e
149      262.976 3 4 0 1000 160 0 0 0 0 e
150      266.573 3 4 0 1000 160 0 0 0 0 e
151      270.086 3 4 0 1000 160 0 0 0 0 e
152      273.515 3 4 0 1000 160 0 0 0 0 e
153      276.945 3 4 0 1000 160 0 0 0 0 e
154      280.207 3 4 0 1000 160 0 0 0 0 e
155      283.552 3 4 0 1000 160 0 0 0 0 e
156      289.909 3 4 0 1000 160 0 0 0 0 e
157      293.004 3 4 0 1000 160 0 0 0 0 e
158      296.015 3 4 0 1000 160 0 0 0 0 e
159      298.943 3 4 0 1000 160 0 0 0 0 e
160       301.87 3 4 0 1000 160 0 0 0 0 e
161      304.714 3 4 0 1000 160 0 0 0 0 e
162      307.475 3 4 0 1000 160 0 0 0 0 e
163      310.151 3 4 0 1000 160 0 0 0 0 e
164      312.828 3 4 0 1000 160 0 0 0 0 e
165      315.421 3 4 0 1000 160 0 0 0 0 e
166       317.93 3 4 0 1000 160 0 0 0 0 e
167      320.356 3 4 0 1000 160 0 0 0 0 e
168      322.698 3 4 0 1000 160 0 0 0 0 e
169       325.04 3 4 0 1000 160 0 0 0 0 e
170      327.298 3 4 0 1000 160 0 0 0 0 e
171      329.389 3 4 0 1000 160 0 0 0 0 e
172       331.48 3 4 0 1000 160 0 0 0 0 e
173      333.488 3 4 0 1000 160 0 0 0 0 e
174      335.495 3 4 0 1000 160 0 0 0 0 e
175      337.335 3 4 0 1000 160 0 0 0 0 e
176      339.176 3 4 0 1000 160 0 0 0 0 e
177      340.848 3 4 0 1000 160 0 0 0 0 e
178      342.521 3 4 0 1000 160 0 0 0 0 e
179      344.111 3 4 0 1000 160 0 0 0 0 e
180      345.616 3 4 0 1000 160 0 0 0 0 e
181      347.038 3 4 0 1000 160 0 0 0 0 e
182      348.376 3 4 0 1000 160 0 0 0 0 e
183      349.715 3 4 0 1000 160 0 0 0 0 e
184      350.886 3 4 0 1000 160 0 0 0 0 e
185      351.973 3 4 0 1000 160 0 0 0 0 e
186       353.06 3 4 0 1000 160 0 0 0 0 e
187      354.064 3 4 0 1000 160 0 0 0 0 e
188      354.901 3 4 0 1000 160 0 0 0 0 e
189      355.737 3 4 0 1000 160 0 0 0 0 e
190       356.49 3 4 0 1000 160 0 0 0 0 e
191      357.159 3 4 0 1000 160 0 0 0 0 e
192      357.745 3 4 0 1000 160 0 0 0 0 e
193      358.246 3 4 0 1000 160 0 0 0 0 e
194      358.665 3 4 0 1000 160 0 0 0 0 e
195      359.083 3 4 0 1000 160 0 0 0 0 e
196      359.334 3 4 0 1000 160 0 0 0 0 e
197      359.501 3 4 0 1000 160 0 0 0 0 e
198      359.668 3 4 0 1000 160 0 0 0 0 e
199      50.3536 3 4 0 1000 160 0 0 0 0 e
200      58.8852 3 4 0 1000 160 0 0 0 0 e
201      67.4169 3 4 0 1000 160 0 0 0 0 e
202      75.9486 3 4 0 1000 160 0 0 0 0 e
203      84.4802 3 4 0 1000 160 0 0 0 0 e
204      93.0119 3 4 0 1000 160 0 0 0 0 e
205       101.46 3 4 0 1000 160 0 0 0 0 e
206      109.992 3 4 0 1000 160 0 0 0 0 e
207       118.44 3 4 0 1000 160 0 0 0 0 e
208      126.888 3 4 0 1000 160 0 0 0 0 e
209      135.336 3 4 0 1000 160 0 0 0 0 e
210        143.7 3 4 0 1000 160 0 0 0 0 e
211      152.064 3 4 0 1000 160 0 0 0 0 e
212      160.429 3 4 0 1000 160 0 0 0 0 e
213       168.71 3 4 0 1000 160 0 0 0 0 e
214       176.99 3 4 0 1000 160 0 0 0 0 e
215      185.271 3 4 0 1000 160 0 0 0 0 e
216      193.468 3 4 0 1000 160 0 0 0 0 e
217      201.665 3 4 0 1000 160 0 0 0 0 e
218      209.862 3 4 0 1000 160 0 0 0 0 e
219      217.892 3 4 0 1000 160 0 0 0 0 e
220      226.006 3 4 0 1000 160 0 0 0 0 e
221      234.035 3 4 0 1000 160 0 0 0 0 e
222      241.982 3 4 0 1000 160 0 0 0 0 e
223      249.844 3 4 0 1000 160 0 0 0 0 e
224      257.707 3 4 0 1000 160 0 0 0 0 e
225      265.569 3 4 0 1000 160 0 0 0 0 e
226      273.348 3 4 0 1000 160 0 0 0 0 e
227      281.043 3 4 0 1000 160 0 0 0 0 e
228      288.655 3 4 0 1000 160 0 0 0 0 e
229      296.266 3 4 0 1000 160 0 0 0 0 e
230      303.711 3 4 0 1000 160 0 0 0 0 e
231      311.155 3 4 0 1000 160 0 0 0 0 e
232      318.599 3 4 0 1000 160 0 0 0 0 e
233      325.876 3 4 0 1000 160 0 0 0 0 e
234      333.153 3 4 0 1000 160 0 0 0 0 e
235      340.347 3 4 0 1000 160 0 0 0 0 e
236      347.456 3 4 0 1000 160 0 0 0 0 e
237      354.482 3 4 0 1000 160 0 0 0 0 e
238      361.425 3 4 0 1000 160 0 0 0 0 e
239      368.284 3 4 0 1000 160 0 0 0 0 e
240      375.059 3 4 0 1000 160 0 0 0 0 e
241       381.75 3 4 0 1000 160 0 0 0 0 e
242      388.358 3 4 0 1000 160 0 0 0 0 e
243      394.882 3 4 0 1000 160 0 0 0 0 e
244      401.407 3 4 0 1000 160 0 0 0 0 e
245      407.764 3 4 0 1000 160 0 0 0 0 e
246      414.037 3 4 0 1000 160 0 0 0 0 e
247      420.143 3 4 0 1000 160 0 0 0 0 e
248      426.249 3 4 0 1000 160 0 0 0 0 e
249      432.271 3 4 0 1000 160 0 0 0 0 e
250      438.126 3 4 0 1000 160 0 0 0 0 e
251      443.981 3 4 0 1000 160 0 0 0 0 e
252      449.669 3 4 0 1000 160 0 0 0 0 e
253      455.273 3 4 0 1000 160 0 0 0 0 e
254       460.71 3 4 0 1000 160 0 0 0 0 e
255      466.147 3 4 0 1000 160 0 0 0 0 e
256      471.416 3 4 0 1000 160 0 0 0 0 e
257      476.602 3 4 0 1000 160 0 0 0 0 e
258      481.705 3 4 0 1000 160 0 0 0 0 e
259       486.64 3 4 0 1000 160 0 0 0 0 e
260      491.491 3 4 0 1000 160 0 0 0 0 e
261      496.259 3 4 0 1000 160 0 0 0 0 e
262      500.859 3 4 0 1000 160 0 0 0 0 e
263      505.376 3 4 0 1000 160 0 0 0 0 e
264      509.809 3 4 0 1000 160 0 0 0 0 e
265      514.075 3 4 0 1000 160 0 0 0 0 e
266      518.257 3 4 0 1000 160 0 0 0 0 e
267      522.272 3 4 0 1000 160 0 0 0 0 e
268      526.287 3 4 0 1000 160 0 0 0 0 e
269      530.051 3 4 0 1000 160 0 0 0 0 e
270      533.731 3 4 0 1000 160 0 0 0 0 e
271      537.328 3 4 0 1000 160 0 0 0 0 e
272      540.757 3 4 0 1000 160 0 0 0 0 e
273      544.103 3 4 0 1000 160 0 0 0 0 e
274      547.365 3 4 0 1000 160 0 0 0 0 e
275      550.376 3 4 0 1000 160 0 0 0 0 e
276      553.387 3 4 0 1000 160 0 0 0 0 e
277      556.231 3 4 0 1000 160 0 0 0 0 e
278      558.908 3 4 0 1000 160 0 0 0 0 e
279      561.501 3 4 0 1000 160 0 0 0 0 e
280      563.927 3 4 0 1000 160 0 0 0 0 e
281      566.269 3 4 0 1000 160 0 0 0 0 e
282      568.443 3 4 0 1000 160 0 0 0 0 e
283      570.451 3 4 0 1000 160 0 0 0 0 e
284      572.375 3 4 0 1000 160 0 0 0 0 e
285      574.215 3 4 0 1000 160 0 0 0 0 e
286      575.888 3 4 0 1000 160 0 0 0 0 e
287      577.393 3 4 0 1000 160 0 0 0 0 e
288      578.815 3 4 0 1000 160 0 0 0 0 e
289       580.07 3 4 0 1000 160 0 0 0 0 e
290      581.241 3 4 0 1000 160 0 0 0 0 e
291      582.245 3 4 0 1000 160 0 0 0 0 e
292      583.081 3 4 0 1000 160 0 0 0 0 e
293      583.834 3 4 0 1000 160 0 0 0 0 e
294      584.419 3 4 0 1000 160 0 0 0 0 e
295      584.921 3 4 0 1000 160 0 0 0 0 e
296      585.256 3 4 0 1000 160 0 0 0 0 e
297      585.423 3 4 0 1000 160 0 0 0 0 e
298      585.507 3 4 0 1000 160 0 0 0 0 e
299      47.0915 3 4 0 1000 160 0 0 0 0 e
300       52.361 3 4 0 1000 160 0 0 0 0 e
301      62.8165 3 4 0 1000 160 0 0 0 0 e
302      68.0861 3 4 0 1000 160 0 0 0 0 e
303      78.5415 3 4 0 1000 160 0 0 0 0 e
304      83.7274 3 4 0 1000 160 0 0 0 0 e
305       88.997 3 4 0 1000 160 0 0 0 0 e
306      94.1829 3 4 0 1000 160 0 0 0 0 e
307      99.3688 3 4 0 1000 160 0 0 0 0 e
308      104.555 3 4 0 1000 160 0 0 0 0 e
309      109.657 3 4 0 1000 160 0 0 0 0 e
310      114.843 3 4 0 1000 160 0 0 0 0 e
311      119.945 3 4 0 1000 160 0 0 0 0 e
312      125.047 3 4 0 1000 160 0 0 0 0 e
313      130.066 3 4 0 1000 160 0 0 0 0 e
314      135.168 3 4 0 1000 160 0 0 0 0 e
315      140.187 3 4 0 1000 160 0 0 0 0 e
316      145.206 3 4 0 1000 160 0 0 0 0 e
317      150.224 3 4 0 1000 160 0 0 0 0 e
318      155.159 3 4 0 1000 160 0 0 0 0 e
319      160.094 3 4 0 1000 160 0 0 0 0 e
320      164.946 3 4 0 1000 160 0 0 0 0 e
321      169.881 3 4 0 1000 160 0 0 0 0 e
322      174.732 3 4 0 1000 160 0 0 0 0 e
323        179.5 3 4 0 1000 160 0 0 0 0 e
324      184.267 3 4 0 1000 160 0 0 0 0 e
325      189.035 3 4 0 1000 160 0 0 0 0 e
326      193.719 3 4 0 1000 160 0 0 0 0 e
327      198.403 3 4 0 1000 160 0 0 0 0 e
328      203.004 3 4 0 1000 160 0 0 0 0 e
329      207.604 3 4 0 1000 160 0 0 0 0 e
330      216.637 3 4 0 1000 160 0 0 0 0 e
331      221.071 3 4 0 1000 160 0 0 0 0 e
332      225.504 3 4 0 1000 160 0 0 0 0 e
333      229.853 3 4 0 1000 160 0 0 0 0 e
334      234.203 3 4 0 1000 160 0 0 0 0 e
335      238.468 3 4 0 1000 160 0 0 0 0 e
336      242.734 3 4 0 1000 160 0 0 0 0 e
337      246.917 3 4 0 1000 160 0 0 0 0 e
338      251.015 3 4 0 1000 160 0 0 0 0 e
339      255.114 3 4 0 1000 160 0 0 0 0 e
340      259.128 3 4 0 1000 160 0 0 0 0 e
341       263.06 3 4 0 1000 160 0 0 0 0 e
342      266.991 3 4 0 1000 160 0 0 0 0 e
343      270.839 3 4 0 1000 160 0 0 0 0 e
344      274.686 3 4 0 1000 160 0 0 0 0 e
345      278.367 3 4 0 1000 160 0 0 0 0 e
346      282.131 3 4 0 1000 160 0 0 0 0 e
347      285.727 3 4 0 1000 160 0 0 0 0 e
348      289.324 3 4 0 1000 160 0 0 0 0 e
349      299.612 3 4 0 1000 160 0 0 0 0 e
350      302.958 3 4 0 1000 160 0 0 0 0 e
351       306.22 3 4 0 1000 160 0 0 0 0 e
352      309.398 3 4 0 1000 160 0 0 0 0 e
353      312.493 3 4 0 1000 160 0 0 0 0 e
354      315.588 3 4 0 1000 160 0 0 0 0 e
355      318.516 3 4 0 1000 160 0 0 0 0 e
356      321.443 3 4 0 1000 160 0 0 0 0 e
357      324.287 3 4 0 1000 160 0 0 0 0 e
358      327.131 3 4 0 1000 160 0 0 0 0 e
359      329.808 3 4 0 1000 160 0 0 0 0 e
360      332.484 3 4 0 1000 160 0 0 0 0 e
361      334.993 3 4 0 1000 160 0 0 0 0 e
362      337.503 3 4 0 1000 160 0 0 0 0 e
363      339.928 3 4 0 1000 160 0 0 0 0 e
364       342.27 3 4 0 1000 160 0 0 0 0 e
365      344.529 3 4 0 1000 160 0 0 0 0 e
366      346.787 3 4 0 1000 160 0 0 0 0 e
367      348.878 3 4 0 1000 160 0 0 0 0 e
368      350.969 3 4 0 1000 160 0 0 0 0 e
369      352.893 3 4 0 1000 160 0 0 0 0 e
370      354.817 3 4 0 1000 160 0 0 0 0 e
371      356.657 3 4 0 1000 160 0 0 0 0 e
372       358.33 3 4 0 1000 160 0 0 0 0 e
373      360.003 3 4 0 1000 160 0 0 0 0 e
374      361.592 3 4 0 1000 160 0 0 0 0 e
375      363.098 3 4 0 1000 160 0 0 0 0 e
376       364.52 3 4 0 1000 160 0 0 0 0 e
377      365.858 3 4 0 1000 160 0 0 0 0 e
378      367.113 3 4 0 1000 160 0 0 0 0 e
379      368.367 3 4 0 1000 160 0 0 0 0 e
380      369.455 3 4 0 1000 160 0 0 0 0 e
381      370.458 3 4 0 1000 160 0 0 0 0 e
382      371.378 3 4 0 1000 160 0 0 0 0 e
383      372.299 3 4 0 1000 160 0 0 0 0 e
384      373.051 3 4 0 1000 160 0 0 0 0 e
385      373.721 3 4 0 1000 160 0 0 0 0 e
386       374.39 3 4 0 1000 160 0 0 0 0 e
387      374.892 3 4 0 1000 160 0 0 0 0 e
388      375.393 3 4 0 1000 160 0 0 0 0 e
389      375.728 3 4 0 1000 160 0 0 0 0 e
390      376.063 3 4 0 1000 160 0 0 0 0 e
391       376.23 3 4 0 1000 160 0 0 0 0 e
392      376.397 3 4 0 1000 160 0 0 0 0 e
393      44.7494 3 4 0 1000 160 0 0 0 0 e
394      47.5933 3 4 0 1000 160 0 0 0 0 e
395      50.5209 3 4 0 1000 160 0 0 0 0 e
396      53.3647 3 4 0 1000 160 0 0 0 0 e
397      56.2923 3 4 0 1000 160 0 0 0 0 e
398      59.1362 3 4 0 1000 160 0 0 0 0 e
399      61.9801 3 4 0 1000 160 0 0 0 0 e
400      64.9076 3 4 0 1000 160 0 0 0 0 e
401      67.7515 3 4 0 1000 160 0 0 0 0 e
402      70.5954 3 4 0 1000 160 0 0 0 0 e
403      73.4393 3 4 0 1000 160 0 0 0 0 e
404      76.2831 3 4 0 1000 160 0 0 0 0 e
405       79.127 3 4 0 1000 160 0 0 0 0 e
406      81.9709 3 4 0 1000 160 0 0 0 0 e
407      84.8148 3 4 0 1000 160 0 0 0 0 e
408      87.5751 3 4 0 1000 160 0 0 0 0 e
409      90.4189 3 4 0 1000 160 0 0 0 0 e
410      93.1792 3 4 0 1000 160 0 0 0 0 e
411      95.9394 3 4 0 1000 160 0 0 0 0 e
412      98.6997 3 4 0 1000 160 0 0 0 0 e
413      104.137 3 4 0 1000 160 0 0 0 0 e
414      106.897 3 4 0 1000 160 0 0 0 0 e
415      109.573 3 4 0 1000 160 0 0 0 0 e
416       112.25 3 4 0 1000 160 0 0 0 0 e
417      114.927 3 4 0 1000 160 0 0 0 0 e
418       117.52 3 4 0 1000 160 0 0 0 0 e
419      120.196 3 4 0 1000 160 0 0 0 0 e
420      122.789 3 4 0 1000 160 0 0 0 0 e
421      125.382 3 4 0 1000 160 0 0 0 0 e
422      127.891 3 4 0 1000 160 0 0 0 0 e
423      132.994 3 4 0 1000 160 0 0 0 0 e
424      135.503 3 4 0 1000 160 0 0 0 0 e
425      137.929 3 4 0 1000 160 0 0 0 0 e
426      140.438 3 4 0 1000 160 0 0 0 0 e
427      142.864 3 4 0 1000 160 0 0 0 0 e
428      145.289 3 4 0 1000 160 0 0 0 0 e
429      147.631 3 4 0 1000 160 0 0 0 0 e
430      149.973 3 4 0 1000 160 0 0 0 0 e
431      152.315 3 4 0 1000 160 0 0 0 0 e
432      154.574 3 4 0 1000 160 0 0 0 0 e
433      156.916 3 4 0 1000 160 0 0 0 0 e
434      159.091 3 4 0 1000 160 0 0 0 0 e
435      161.349 3 4 0 1000 160 0 0 0 0 e
436      163.524 3 4 0 1000 160 0 0 0 0 e
437      165.698 3 4 0 1000 160 0 0 0 0 e
438      167.789 3 4 0 1000 160 0 0 0 0 e
439      171.972 3 4 0 1000 160 0 0 0 0 e
440      173.979 3 4 0 1000 160 0 0 0 0 e
441      175.987 3 4 0 1000 160 0 0 0 0 e
442       177.91 3 4 0 1000 160 0 0 0 0 e
443      179.834 3 4 0 1000 160 0 0 0 0 e
444      181.758 3 4 0 1000 160 0 0 0 0 e
445      183.598 3 4 0 1000 160 0 0 0 0 e
446      185.438 3 4 0 1000 160 0 0 0 0 e
447      187.195 3 4 0 1000 160 0 0 0 0 e
448      188.951 3 4 0 1000 160 0 0 0 0 e
449      190.708 3 4 0 1000 160 0 0 0 0 e
450      192.381 3 4 0 1000 160 0 0 0 0 e
451      194.054 3 4 0 1000 160 0 0 0 0 e
452      197.232 3 4 0 1000 160 0 0 0 0 e
453      200.243 3 4 0 1000 160 0 0 0 0 e
454      203.087 3 4 0 1000 160 0 0 0 0 e
455      204.425 3 4 0 1000 160 0 0 0 0 e
456      205.764 3 4 0 1000 160 0 0 0 0 e
457      207.102 3 4 0 1000 160 0 0 0 0 e
458      208.357 3 4 0 1000 160 0 0 0 0 e
459      209.528 3 4 0 1000 160 0 0 0 0 e
460       211.87 3 4 0 1000 160 0 0 0 0 e
461      212.957 3 4 0 1000 160 0 0 0 0 e
462      213.961 3 4 0 1000 160 0 0 0 0 e
463      214.965 3 4 0 1000 160 0 0 0 0 e
464      215.885 3 4 0 1000 160 0 0 0 0 e
465      216.805 3 4 0 1000 160 0 0 0 0 e
466      217.725 3 4 0 1000 160 0 0 0 0 e
467      218.561 3 4 0 1000 160 0 0 0 0 e
468      219.314 3 4 0 1000 160 0 0 0 0 e
469      220.067 3 4 0 1000 160 0 0 0 0 e
470      220.736 3 4 0 1000 160 0 0 0 0 e
471      221.405 3 4 0 1000 160 0 0 0 0 e
472      222.576 3 4 0 1000 160 0 0 0 0 e
473      223.078 3 4 0 1000 160 0 0 0 0 e
474       223.58 3 4 0 1000 160 0 0 0 0 e
475      223.998 3 4 0 1000 160 0 0 0 0 e
476      224.416 3 4 0 1000 160 0 0 0 0 e
477      225.002 3 4 0 1000 160 0 0 0 0 e
478      225.253 3 4 0 1000 160 0 0 0 0 e
