# Pulseq sequence file
# Created by MATLAB mr toolbox

[VERSION]
major 1
minor 5
revision 0

[DEFINITIONS]
AdcRasterTime 1e-07 
BlockDurationRaster 1e-05 
FOV 0.336 0.336 0.008 
GradientRasterTime 1e-05 
Name 250719_0248_mgram_cardiac_mrf 
RadiofrequencyRasterTime 1e-06 
Rot_Matrix 1 0 0 0 1 0 0 0 1 
Scan_ID 507190248 

# Format of blocks:
# NUM DUR RF  GX  GY  GZ  ADC  EXT
[BLOCKS]
   1 405   0   0   0   0  1  0
   2 405   0   0   0   0  1  0
   3 405   0   0   0   0  1  0
   4 405   0   0   0   0  1  0
   5 405   0   0   0   0  1  0
   6 405   0   0   0   0  1  0
   7 405   0   0   0   0  1  0
   8 405   0   0   0   0  1  0
   9 405   0   0   0   0  1  0
  10 405   0   0   0   0  1  0
  11 405   0   0   0   0  1  0
  12 405   0   0   0   0  1  0
  13 405   0   0   0   0  1  0
  14 405   0   0   0   0  1  0
  15 405   0   0   0   0  1  0
  16 405   0   0   0   0  1  0
  17 405   0   0   0   0  1  0
  18 405   0   0   0   0  1  0
  19 405   0   0   0   0  1  0
  20 405   0   0   0   0  1  0
  21 405   0   0   0   0  1  0
  22 405   0   0   0   0  1  0
  23 405   0   0   0   0  1  0
  24 405   0   0   0   0  1  0
  25 405   0   0   0   0  1  0
  26 405   0   0   0   0  1  0
  27 405   0   0   0   0  1  0
  28 405   0   0   0   0  1  0
  29 405   0   0   0   0  1  0
  30 405   0   0   0   0  1  0
  31 405   0   0   0   0  1  0
  32 405   0   0   0   0  1  0
  33 405   0   0   0   0  1  0
  34 405   0   0   0   0  1  0
  35 405   0   0   0   0  1  0
  36 405   0   0   0   0  1  0
  37 405   0   0   0   0  1  0
  38 405   0   0   0   0  1  0
  39 405   0   0   0   0  1  0
  40 405   0   0   0   0  1  0
  41 405   0   0   0   0  1  0
  42 405   0   0   0   0  1  0
  43 405   0   0   0   0  1  0
  44 405   0   0   0   0  1  0
  45 405   0   0   0   0  1  0
  46 405   0   0   0   0  1  0
  47 405   0   0   0   0  1  0
  48 405   0   0   0   0  1  0
  49 405   0   0   0   0  1  0
  50 405   0   0   0   0  1  0
  51 405   0   0   0   0  1  0
  52 405   0   0   0   0  1  0
  53 405   0   0   0   0  1  0
  54 405   0   0   0   0  1  0
  55 405   0   0   0   0  1  0
  56 405   0   0   0   0  1  0
  57 405   0   0   0   0  1  0
  58 405   0   0   0   0  1  0
  59 405   0   0   0   0  1  0
  60 405   0   0   0   0  1  0
  61 405   0   0   0   0  1  0
  62 405   0   0   0   0  1  0
  63 405   0   0   0   0  1  0
  64 405   0   0   0   0  1  0
  65 405   0   0   0   0  1  0
  66 405   0   0   0   0  1  0
  67 405   0   0   0   0  1  0
  68 405   0   0   0   0  1  0
  69 405   0   0   0   0  1  0
  70 405   0   0   0   0  1  0
  71 405   0   0   0   0  1  0
  72 405   0   0   0   0  1  0
  73 405   0   0   0   0  1  0
  74 405   0   0   0   0  1  0
  75 405   0   0   0   0  1  0
  76 405   0   0   0   0  1  0
  77 405   0   0   0   0  1  0
  78 405   0   0   0   0  1  0
  79 405   0   0   0   0  1  0
  80 405   0   0   0   0  1  0
  81 405   0   0   0   0  1  0
  82 405   0   0   0   0  1  0
  83 405   0   0   0   0  1  0
  84 405   0   0   0   0  1  0
  85 405   0   0   0   0  1  0
  86 405   0   0   0   0  1  0
  87 405   0   0   0   0  1  0
  88 405   0   0   0   0  1  0
  89 405   0   0   0   0  1  0
  90 405   0   0   0   0  1  0
  91 405   0   0   0   0  1  0
  92 405   0   0   0   0  1  0
  93 405   0   0   0   0  1  0
  94 405   0   0   0   0  1  0
  95 405   0   0   0   0  1  0
  96 405   0   0   0   0  1  0
  97 405   0   0   0   0  1  0
  98 405   0   0   0   0  1  0
  99 405   0   0   0   0  1  0
 100 405   0   0   0   0  1  0
 101 72018   0   0   0   0  0  0
 102 1020   1   0   0   0  0  0
 103 119   0   0   0   1  0  0
 104 1500   0   0   0   0  0  0
 105 100   2   0   0   2  0  0
 106  28   0   0   0   3  0  0
 107   1   0   0   0   0  0  0
 108 398   0   4   5   6  2  0
 109   1   0   0   0   0  0  0
 110 100   3   0   0   2  0  0
 111  28   0   0   0   3  0  0
 112   1   0   0   0   0  0  0
 113 398   0   7   8   6  2  0
 114   1   0   0   0   0  0  0
 115 100   4   0   0   2  0  0
 116  28   0   0   0   3  0  0
 117   1   0   0   0   0  0  0
 118 398   0   9  10   6  2  0
 119   1   0   0   0   0  0  0
 120 100   5   0   0   2  0  0
 121  28   0   0   0   3  0  0
 122   1   0   0   0   0  0  0
 123 398   0  11   7   6  2  0
 124   1   0   0   0   0  0  0
 125 100   6   0   0   2  0  0
 126  28   0   0   0   3  0  0
 127   1   0   0   0   0  0  0
 128 398   0  12  13   6  2  0
 129   1   0   0   0   0  0  0
 130 100   7   0   0   2  0  0
 131  28   0   0   0   3  0  0
 132   1   0   0   0   0  0  0
 133 398   0  14  15   6  2  0
 134   1   0   0   0   0  0  0
 135 100   8   0   0   2  0  0
 136  28   0   0   0   3  0  0
 137   1   0   0   0   0  0  0
 138 398   0  16  12   6  2  0
 139   1   0   0   0   0  0  0
 140 100   9   0   0   2  0  0
 141  28   0   0   0   3  0  0
 142   1   0   0   0   0  0  0
 143 398   0  17  18   6  2  0
 144   1   0   0   0   0  0  0
 145 100  10   0   0   2  0  0
 146  28   0   0   0   3  0  0
 147   1   0   0   0   0  0  0
 148 398   0  19  20   6  2  0
 149   1   0   0   0   0  0  0
 150 100  11   0   0   2  0  0
 151  28   0   0   0   3  0  0
 152   1   0   0   0   0  0  0
 153 398   0  21  17   6  2  0
 154   1   0   0   0   0  0  0
 155 100  12   0   0   2  0  0
 156  28   0   0   0   3  0  0
 157   1   0   0   0   0  0  0
 158 398   0  22  23   6  2  0
 159   1   0   0   0   0  0  0
 160 100  13   0   0   2  0  0
 161  28   0   0   0   3  0  0
 162   1   0   0   0   0  0  0
 163 398   0  24  25   6  2  0
 164   1   0   0   0   0  0  0
 165 100  14   0   0   2  0  0
 166  28   0   0   0   3  0  0
 167   1   0   0   0   0  0  0
 168 398   0  26  22   6  2  0
 169   1   0   0   0   0  0  0
 170 100  15   0   0   2  0  0
 171  28   0   0   0   3  0  0
 172   1   0   0   0   0  0  0
 173 398   0  27  28   6  2  0
 174   1   0   0   0   0  0  0
 175 100  16   0   0   2  0  0
 176  28   0   0   0   3  0  0
 177   1   0   0   0   0  0  0
 178 398   0  29  30   6  2  0
 179   1   0   0   0   0  0  0
 180 100  17   0   0   2  0  0
 181  28   0   0   0   3  0  0
 182   1   0   0   0   0  0  0
 183 398   0  31  27   6  2  0
 184   1   0   0   0   0  0  0
 185 100  18   0   0   2  0  0
 186  28   0   0   0   3  0  0
 187   1   0   0   0   0  0  0
 188 398   0  32  33   6  2  0
 189   1   0   0   0   0  0  0
 190 100  19   0   0   2  0  0
 191  28   0   0   0   3  0  0
 192   1   0   0   0   0  0  0
 193 398   0  34  35   6  2  0
 194   1   0   0   0   0  0  0
 195 100  20   0   0   2  0  0
 196  28   0   0   0   3  0  0
 197   1   0   0   0   0  0  0
 198 398   0  36  32   6  2  0
 199   1   0   0   0   0  0  0
 200 100  21   0   0   2  0  0
 201  28   0   0   0   3  0  0
 202   1   0   0   0   0  0  0
 203 398   0  37  38   6  2  0
 204   1   0   0   0   0  0  0
 205 100  22   0   0   2  0  0
 206  28   0   0   0   3  0  0
 207   1   0   0   0   0  0  0
 208 398   0   8  39   6  2  0
 209   1   0   0   0   0  0  0
 210 100  23   0   0   2  0  0
 211  28   0   0   0   3  0  0
 212   1   0   0   0   0  0  0
 213 398   0  10  37   6  2  0
 214   1   0   0   0   0  0  0
 215 100  24   0   0   2  0  0
 216  28   0   0   0   3  0  0
 217   1   0   0   0   0  0  0
 218 398   0  40  41   6  2  0
 219   1   0   0   0   0  0  0
 220 100  25   0   0   2  0  0
 221  28   0   0   0   3  0  0
 222   1   0   0   0   0  0  0
 223 398   0  13  42   6  2  0
 224   1   0   0   0   0  0  0
 225 100  25   0   0   2  0  0
 226  28   0   0   0   3  0  0
 227   1   0   0   0   0  0  0
 228 398   0  15  40   6  2  0
 229   1   0   0   0   0  0  0
 230 100  24   0   0   2  0  0
 231  28   0   0   0   3  0  0
 232   1   0   0   0   0  0  0
 233 398   0  43  44   6  2  0
 234   1   0   0   0   0  0  0
 235 100  23   0   0   2  0  0
 236  28   0   0   0   3  0  0
 237   1   0   0   0   0  0  0
 238 398   0  18  45   6  2  0
 239   1   0   0   0   0  0  0
 240 100  22   0   0   2  0  0
 241  28   0   0   0   3  0  0
 242   1   0   0   0   0  0  0
 243 398   0  20  43   6  2  0
 244   1   0   0   0   0  0  0
 245 100  21   0   0   2  0  0
 246  28   0   0   0   3  0  0
 247   1   0   0   0   0  0  0
 248 398   0  46  47   6  2  0
 249   1   0   0   0   0  0  0
 250 100  20   0   0   2  0  0
 251  28   0   0   0   3  0  0
 252   1   0   0   0   0  0  0
 253 398   0  23  48   6  2  0
 254   1   0   0   0   0  0  0
 255 100  19   0   0   2  0  0
 256  28   0   0   0   3  0  0
 257   1   0   0   0   0  0  0
 258 398   0  25  46   6  2  0
 259   1   0   0   0   0  0  0
 260 100  18   0   0   2  0  0
 261  28   0   0   0   3  0  0
 262   1   0   0   0   0  0  0
 263 398   0  49  50   6  2  0
 264   1   0   0   0   0  0  0
 265 100  17   0   0   2  0  0
 266  28   0   0   0   3  0  0
 267   1   0   0   0   0  0  0
 268 398   0  28  51   6  2  0
 269   1   0   0   0   0  0  0
 270 100  16   0   0   2  0  0
 271  28   0   0   0   3  0  0
 272   1   0   0   0   0  0  0
 273 398   0  30  49   6  2  0
 274   1   0   0   0   0  0  0
 275 100  15   0   0   2  0  0
 276  28   0   0   0   3  0  0
 277   1   0   0   0   0  0  0
 278 398   0   4   5   6  2  0
 279   1   0   0   0   0  0  0
 280 100  14   0   0   2  0  0
 281  28   0   0   0   3  0  0
 282   1   0   0   0   0  0  0
 283 398   0  33  52   6  2  0
 284   1   0   0   0   0  0  0
 285 100  13   0   0   2  0  0
 286  28   0   0   0   3  0  0
 287   1   0   0   0   0  0  0
 288 398   0  35   4   6  2  0
 289   1   0   0   0   0  0  0
 290 100  12   0   0   2  0  0
 291  28   0   0   0   3  0  0
 292   1   0   0   0   0  0  0
 293 398   0  11   7   6  2  0
 294   1   0   0   0   0  0  0
 295 100  11   0   0   2  0  0
 296  28   0   0   0   3  0  0
 297   1   0   0   0   0  0  0
 298 398   0  38   9   6  2  0
 299   1   0   0   0   0  0  0
 300 100  10   0   0   2  0  0
 301  28   0   0   0   3  0  0
 302   1   0   0   0   0  0  0
 303 398   0  39  11   6  2  0
 304   1   0   0   0   0  0  0
 305 100   9   0   0   2  0  0
 306  28   0   0   0   3  0  0
 307   1   0   0   0   0  0  0
 308 398   0  16  12   6  2  0
 309   1   0   0   0   0  0  0
 310 100   8   0   0   2  0  0
[RF]
1          600 1 2 0 5000 100 0 0 0 0 i
2      34.0748 3 4 0 400 100 0 0 0 0 e
3      39.5605 3 4 0 400 100 0 0 0 0 e
4      45.0218 3 4 0 400 100 0 0 0 0 e
5      50.4342 3 4 0 400 100 0 0 0 0 e
6      55.7735 3 4 0 400 100 0 0 0 0 e
7      61.0159 3 4 0 400 100 0 0 0 0 e
8      66.1379 3 4 0 400 100 0 0 0 0 e
9      71.1168 3 4 0 400 100 0 0 0 0 e
10      75.9302 3 4 0 400 100 0 0 0 0 e
11      80.5567 3 4 0 400 100 0 0 0 0 e
12      84.9756 3 4 0 400 100 0 0 0 0 e
13      89.1672 3 4 0 400 100 0 0 0 0 e
14      93.1127 3 4 0 400 100 0 0 0 0 e
15      96.7945 3 4 0 400 100 0 0 0 0 e
16      100.196 3 4 0 400 100 0 0 0 0 e
17      103.303 3 4 0 400 100 0 0 0 0 e
18        106.1 3 4 0 400 100 0 0 0 0 e
19      108.575 3 4 0 400 100 0 0 0 0 e
20      110.718 3 4 0 400 100 0 0 0 0 e
21      112.519 3 4 0 400 100 0 0 0 0 e
22      113.969 3 4 0 400 100 0 0 0 0 e
23      115.062 3 4 0 400 100 0 0 0 0 e
24      115.794 3 4 0 400 100 0 0 0 0 e
25       116.16 3 4 0 400 100 0 0 0 0 e
26      58.0696 29 30 0 4000 100 0 0 -220.338 0 s
27      39.9405 3 4 0 400 100 0 0 0 0 e
28      45.7801 3 4 0 400 100 0 0 0 0 e
29      51.5674 3 4 0 400 100 0 0 0 0 e
30      57.2765 3 4 0 400 100 0 0 0 0 e
31       62.882 3 4 0 400 100 0 0 0 0 e
32      68.3589 3 4 0 400 100 0 0 0 0 e
33      73.6826 3 4 0 400 100 0 0 0 0 e
34      78.8295 3 4 0 400 100 0 0 0 0 e
35      83.7765 3 4 0 400 100 0 0 0 0 e
36      88.5014 3 4 0 400 100 0 0 0 0 e
37      92.9833 3 4 0 400 100 0 0 0 0 e
38      97.2021 3 4 0 400 100 0 0 0 0 e
39      101.139 3 4 0 400 100 0 0 0 0 e
40      104.776 3 4 0 400 100 0 0 0 0 e
41      108.098 3 4 0 400 100 0 0 0 0 e
42      111.089 3 4 0 400 100 0 0 0 0 e
43      113.736 3 4 0 400 100 0 0 0 0 e
44      116.027 3 4 0 400 100 0 0 0 0 e
45      117.952 3 4 0 400 100 0 0 0 0 e
46      119.503 3 4 0 400 100 0 0 0 0 e
47      120.672 3 4 0 400 100 0 0 0 0 e
48      121.454 3 4 0 400 100 0 0 0 0 e
49      121.846 3 4 0 400 100 0 0 0 0 e
50          640 31 32 0 5000 100 0 0 0 1.5708 e
51          500 33 34 0 1000 100 0 0 0 1.5708 r
52          500 33 34 0 1000 100 0 0 0 -1.5708 r
53          640 35 36 0 5000 100 0 0 0 1.5708 e
54      36.6909 3 4 0 400 100 0 0 0 0 e
55      39.2954 3 4 0 400 100 0 0 0 0 e
56      41.8765 3 4 0 400 100 0 0 0 0 e
57      44.4228 3 4 0 400 100 0 0 0 0 e
58      46.9229 3 4 0 400 100 0 0 0 0 e
59      49.3656 3 4 0 400 100 0 0 0 0 e
60        51.74 3 4 0 400 100 0 0 0 0 e
61      54.0355 3 4 0 400 100 0 0 0 0 e
62      56.2418 3 4 0 400 100 0 0 0 0 e
63      58.3492 3 4 0 400 100 0 0 0 0 e
64      60.3481 3 4 0 400 100 0 0 0 0 e
65      62.2297 3 4 0 400 100 0 0 0 0 e
66      63.9856 3 4 0 400 100 0 0 0 0 e
67      65.6078 3 4 0 400 100 0 0 0 0 e
68      67.0893 3 4 0 400 100 0 0 0 0 e
69      68.4232 3 4 0 400 100 0 0 0 0 e
70      69.6038 3 4 0 400 100 0 0 0 0 e
71      70.6257 3 4 0 400 100 0 0 0 0 e
72      71.4843 3 4 0 400 100 0 0 0 0 e
73      72.1759 3 4 0 400 100 0 0 0 0 e
74      72.6973 3 4 0 400 100 0 0 0 0 e
75      73.0462 3 4 0 400 100 0 0 0 0 e
76       73.221 3 4 0 400 100 0 0 0 0 e
77      39.9722 3 4 0 400 100 0 0 0 0 e
78      45.8432 3 4 0 400 100 0 0 0 0 e
79      51.6617 3 4 0 400 100 0 0 0 0 e
80      57.4017 3 4 0 400 100 0 0 0 0 e
81      63.0374 3 4 0 400 100 0 0 0 0 e
82      68.5439 3 4 0 400 100 0 0 0 0 e
83      73.8963 3 4 0 400 100 0 0 0 0 e
84      79.0709 3 4 0 400 100 0 0 0 0 e
85      84.0446 3 4 0 400 100 0 0 0 0 e
86      88.7951 3 4 0 400 100 0 0 0 0 e
87      93.3011 3 4 0 400 100 0 0 0 0 e
88      97.5427 3 4 0 400 100 0 0 0 0 e
89      101.501 3 4 0 400 100 0 0 0 0 e
90      105.158 3 4 0 400 100 0 0 0 0 e
91      108.497 3 4 0 400 100 0 0 0 0 e
92      111.504 3 4 0 400 100 0 0 0 0 e
93      114.166 3 4 0 400 100 0 0 0 0 e
94      116.469 3 4 0 400 100 0 0 0 0 e
95      118.405 3 4 0 400 100 0 0 0 0 e
96      119.964 3 4 0 400 100 0 0 0 0 e
97      121.139 3 4 0 400 100 0 0 0 0 e
98      121.925 3 4 0 400 100 0 0 0 0 e
99       122.32 3 4 0 400 100 0 0 0 0 e
100      38.7996 3 4 0 400 100 0 0 0 0 e
101      43.5033 3 4 0 400 100 0 0 0 0 e
102       48.165 3 4 0 400 100 0 0 0 0 e
103      52.7637 3 4 0 400 100 0 0 0 0 e
104      57.2789 3 4 0 400 100 0 0 0 0 e
105      61.6905 3 4 0 400 100 0 0 0 0 e
106      65.9787 3 4 0 400 100 0 0 0 0 e
107      70.1245 3 4 0 400 100 0 0 0 0 e
108      74.1093 3 4 0 400 100 0 0 0 0 e
109      77.9152 3 4 0 400 100 0 0 0 0 e
110      81.5254 3 4 0 400 100 0 0 0 0 e
111      84.9236 3 4 0 400 100 0 0 0 0 e
112      88.0947 3 4 0 400 100 0 0 0 0 e
113      91.0246 3 4 0 400 100 0 0 0 0 e
114      93.7001 3 4 0 400 100 0 0 0 0 e
115      96.1093 3 4 0 400 100 0 0 0 0 e
116      98.2414 3 4 0 400 100 0 0 0 0 e
117      100.087 3 4 0 400 100 0 0 0 0 e
118      101.638 3 4 0 400 100 0 0 0 0 e
119      102.887 3 4 0 400 100 0 0 0 0 e
120      103.828 3 4 0 400 100 0 0 0 0 e
121      104.458 3 4 0 400 100 0 0 0 0 e
122      104.774 3 4 0 400 100 0 0 0 0 e
123          640 31 32 0 5000 100 0 0 0 0 e
124       36.568 3 4 0 400 100 0 0 0 0 e
125      39.0502 3 4 0 400 100 0 0 0 0 e
126      41.5101 3 4 0 400 100 0 0 0 0 e
127      43.9368 3 4 0 400 100 0 0 0 0 e
128      46.3195 3 4 0 400 100 0 0 0 0 e
129      48.6474 3 4 0 400 100 0 0 0 0 e
130      50.9103 3 4 0 400 100 0 0 0 0 e
131       53.098 3 4 0 400 100 0 0 0 0 e
132      55.2008 3 4 0 400 100 0 0 0 0 e
133      57.2091 3 4 0 400 100 0 0 0 0 e
134      59.1142 3 4 0 400 100 0 0 0 0 e
135      60.9074 3 4 0 400 100 0 0 0 0 e
136      62.5808 3 4 0 400 100 0 0 0 0 e
137      64.1269 3 4 0 400 100 0 0 0 0 e
138      65.5387 3 4 0 400 100 0 0 0 0 e
139      66.8101 3 4 0 400 100 0 0 0 0 e
140      67.9352 3 4 0 400 100 0 0 0 0 e
141      68.9091 3 4 0 400 100 0 0 0 0 e
142      69.7274 3 4 0 400 100 0 0 0 0 e
143      70.3865 3 4 0 400 100 0 0 0 0 e
144      70.8834 3 4 0 400 100 0 0 0 0 e
145      71.2159 3 4 0 400 100 0 0 0 0 e
146      71.3825 3 4 0 400 100 0 0 0 0 e
147          600 37 38 0 1500 100 0 0 0 0 e
148          200 39 40 41 5000 100 0 0 0 0 p
149      553.818 42 43 0 2000 100 0 0 0 0 r
150          200 39 40 44 10000 100 0 0 0 3.14159 p
151      553.818 42 43 0 2000 100 0 0 0 3.14159 r
152          600 45 46 0 1500 100 0 0 0 0 e
153      37.3231 3 4 0 400 100 0 0 0 0 e
154      40.5569 3 4 0 400 100 0 0 0 0 e
155      43.7618 3 4 0 400 100 0 0 0 0 e
156      46.9234 3 4 0 400 100 0 0 0 0 e
157      50.0276 3 4 0 400 100 0 0 0 0 e
158      53.0606 3 4 0 400 100 0 0 0 0 e
159      56.0088 3 4 0 400 100 0 0 0 0 e
160       58.859 3 4 0 400 100 0 0 0 0 e
161      61.5985 3 4 0 400 100 0 0 0 0 e
162      64.2151 3 4 0 400 100 0 0 0 0 e
163      66.6971 3 4 0 400 100 0 0 0 0 e
164      69.0334 3 4 0 400 100 0 0 0 0 e
165      71.2135 3 4 0 400 100 0 0 0 0 e
166      73.2278 3 4 0 400 100 0 0 0 0 e
167      75.0672 3 4 0 400 100 0 0 0 0 e
168      76.7235 3 4 0 400 100 0 0 0 0 e
169      78.1894 3 4 0 400 100 0 0 0 0 e
170      79.4582 3 4 0 400 100 0 0 0 0 e
171      80.5243 3 4 0 400 100 0 0 0 0 e
172       81.383 3 4 0 400 100 0 0 0 0 e
173      82.0304 3 4 0 400 100 0 0 0 0 e
174      82.4636 3 4 0 400 100 0 0 0 0 e
175      82.6807 3 4 0 400 100 0 0 0 0 e
176          200 39 40 44 10000 100 0 0 0 0 p
177          200 39 40 47 20000 100 0 0 0 3.14159 p
178      38.4429 3 4 0 400 100 0 0 0 0 e
179      42.7916 3 4 0 400 100 0 0 0 0 e
180      47.1013 3 4 0 400 100 0 0 0 0 e
181      51.3529 3 4 0 400 100 0 0 0 0 e
182      55.5273 3 4 0 400 100 0 0 0 0 e
183      59.6059 3 4 0 400 100 0 0 0 0 e
184      63.5704 3 4 0 400 100 0 0 0 0 e
185      67.4032 3 4 0 400 100 0 0 0 0 e
186      71.0872 3 4 0 400 100 0 0 0 0 e
187      74.6058 3 4 0 400 100 0 0 0 0 e
188      77.9435 3 4 0 400 100 0 0 0 0 e
189      81.0852 3 4 0 400 100 0 0 0 0 e
190      84.0169 3 4 0 400 100 0 0 0 0 e
191      86.7256 3 4 0 400 100 0 0 0 0 e
192      89.1992 3 4 0 400 100 0 0 0 0 e
193      91.4265 3 4 0 400 100 0 0 0 0 e
194      93.3977 3 4 0 400 100 0 0 0 0 e
195      95.1039 3 4 0 400 100 0 0 0 0 e
196      96.5376 3 4 0 400 100 0 0 0 0 e
197      97.6923 3 4 0 400 100 0 0 0 0 e
198      98.5629 3 4 0 400 100 0 0 0 0 e
199      99.1454 3 4 0 400 100 0 0 0 0 e
200      99.4373 3 4 0 400 100 0 0 0 0 e
201      40.1563 3 4 0 400 100 0 0 0 0 e
202      46.2107 3 4 0 400 100 0 0 0 0 e
203      52.2109 3 4 0 400 100 0 0 0 0 e
204        58.13 3 4 0 400 100 0 0 0 0 e
205      63.9418 3 4 0 400 100 0 0 0 0 e
206      69.6201 3 4 0 400 100 0 0 0 0 e
207      75.1397 3 4 0 400 100 0 0 0 0 e
208      80.4759 3 4 0 400 100 0 0 0 0 e
209      85.6048 3 4 0 400 100 0 0 0 0 e
210      90.5036 3 4 0 400 100 0 0 0 0 e
211      95.1504 3 4 0 400 100 0 0 0 0 e
212      99.5244 3 4 0 400 100 0 0 0 0 e
213      103.606 3 4 0 400 100 0 0 0 0 e
214      107.377 3 4 0 400 100 0 0 0 0 e
215      110.821 3 4 0 400 100 0 0 0 0 e
216      113.922 3 4 0 400 100 0 0 0 0 e
217      116.666 3 4 0 400 100 0 0 0 0 e
218      119.042 3 4 0 400 100 0 0 0 0 e
219      121.038 3 4 0 400 100 0 0 0 0 e
220      122.645 3 4 0 400 100 0 0 0 0 e
221      123.857 3 4 0 400 100 0 0 0 0 e
222      124.669 3 4 0 400 100 0 0 0 0 e
223      125.075 3 4 0 400 100 0 0 0 0 e
224      40.1871 3 4 0 400 100 0 0 0 0 e
225      46.2721 3 4 0 400 100 0 0 0 0 e
226      52.3027 3 4 0 400 100 0 0 0 0 e
227      58.2519 3 4 0 400 100 0 0 0 0 e
228       64.093 3 4 0 400 100 0 0 0 0 e
229      69.8001 3 4 0 400 100 0 0 0 0 e
230      75.3477 3 4 0 400 100 0 0 0 0 e
231      80.7109 3 4 0 400 100 0 0 0 0 e
232      85.8658 3 4 0 400 100 0 0 0 0 e
233      90.7894 3 4 0 400 100 0 0 0 0 e
234      95.4597 3 4 0 400 100 0 0 0 0 e
235      99.8559 3 4 0 400 100 0 0 0 0 e
236      103.958 3 4 0 400 100 0 0 0 0 e
237      107.748 3 4 0 400 100 0 0 0 0 e
238       111.21 3 4 0 400 100 0 0 0 0 e
239      114.326 3 4 0 400 100 0 0 0 0 e
240      117.085 3 4 0 400 100 0 0 0 0 e
241      119.472 3 4 0 400 100 0 0 0 0 e
242      121.478 3 4 0 400 100 0 0 0 0 e
243      123.094 3 4 0 400 100 0 0 0 0 e
244      124.312 3 4 0 400 100 0 0 0 0 e
245      125.127 3 4 0 400 100 0 0 0 0 e
246      125.536 3 4 0 400 100 0 0 0 0 e
247          500 48 49 0 7500 100 0 0 0 0 o
248          500 48 49 0 7500 100 0 0 0 3.14159 o
249      36.8187 3 4 0 400 100 0 0 0 0 e
250      39.5504 3 4 0 400 100 0 0 0 0 e
251      42.2576 3 4 0 400 100 0 0 0 0 e
252      44.9283 3 4 0 400 100 0 0 0 0 e
253      47.5505 3 4 0 400 100 0 0 0 0 e
254      50.1125 3 4 0 400 100 0 0 0 0 e
255      52.6029 3 4 0 400 100 0 0 0 0 e
256      55.0105 3 4 0 400 100 0 0 0 0 e
257      57.3246 3 4 0 400 100 0 0 0 0 e
258      59.5349 3 4 0 400 100 0 0 0 0 e
259      61.6315 3 4 0 400 100 0 0 0 0 e
260       63.605 3 4 0 400 100 0 0 0 0 e
261      65.4466 3 4 0 400 100 0 0 0 0 e
262      67.1481 3 4 0 400 100 0 0 0 0 e
263      68.7019 3 4 0 400 100 0 0 0 0 e
264       70.101 3 4 0 400 100 0 0 0 0 e
265      71.3393 3 4 0 400 100 0 0 0 0 e
266      72.4111 3 4 0 400 100 0 0 0 0 e
267      73.3117 3 4 0 400 100 0 0 0 0 e
268       74.037 3 4 0 400 100 0 0 0 0 e
269      74.5839 3 4 0 400 100 0 0 0 0 e
270      74.9498 3 4 0 400 100 0 0 0 0 e
271      75.1332 3 4 0 400 100 0 0 0 0 e
272      40.2109 3 4 0 400 100 0 0 0 0 e
273      46.3196 3 4 0 400 100 0 0 0 0 e
274      52.3737 3 4 0 400 100 0 0 0 0 e
275       58.346 3 4 0 400 100 0 0 0 0 e
276      64.2099 3 4 0 400 100 0 0 0 0 e
277      69.9392 3 4 0 400 100 0 0 0 0 e
278      75.5084 3 4 0 400 100 0 0 0 0 e
279      80.8925 3 4 0 400 100 0 0 0 0 e
280      86.0675 3 4 0 400 100 0 0 0 0 e
281      91.0103 3 4 0 400 100 0 0 0 0 e
282      95.6988 3 4 0 400 100 0 0 0 0 e
283      100.112 3 4 0 400 100 0 0 0 0 e
284       104.23 3 4 0 400 100 0 0 0 0 e
285      108.035 3 4 0 400 100 0 0 0 0 e
286       111.51 3 4 0 400 100 0 0 0 0 e
287      114.639 3 4 0 400 100 0 0 0 0 e
288      117.408 3 4 0 400 100 0 0 0 0 e
289      119.805 3 4 0 400 100 0 0 0 0 e
290      121.819 3 4 0 400 100 0 0 0 0 e
291      123.441 3 4 0 400 100 0 0 0 0 e
292      124.664 3 4 0 400 100 0 0 0 0 e
293      125.482 3 4 0 400 100 0 0 0 0 e
294      125.892 3 4 0 400 100 0 0 0 0 e
295      40.1549 3 4 0 400 100 0 0 0 0 e
296      46.2078 3 4 0 400 100 0 0 0 0 e
297      52.2066 3 4 0 400 100 0 0 0 0 e
298      58.1244 3 4 0 400 100 0 0 0 0 e
299      63.9348 3 4 0 400 100 0 0 0 0 e
300      69.6118 3 4 0 400 100 0 0 0 0 e
301      75.1301 3 4 0 400 100 0 0 0 0 e
302      80.4651 3 4 0 400 100 0 0 0 0 e
303      85.5928 3 4 0 400 100 0 0 0 0 e
304      90.4905 3 4 0 400 100 0 0 0 0 e
305      95.1362 3 4 0 400 100 0 0 0 0 e
306      99.5091 3 4 0 400 100 0 0 0 0 e
307       103.59 3 4 0 400 100 0 0 0 0 e
308       107.36 3 4 0 400 100 0 0 0 0 e
309      110.803 3 4 0 400 100 0 0 0 0 e
310      113.903 3 4 0 400 100 0 0 0 0 e
311      116.647 3 4 0 400 100 0 0 0 0 e
312      119.022 3 4 0 400 100 0 0 0 0 e
313      121.018 3 4 0 400 100 0 0 0 0 e
314      122.625 3 4 0 400 100 0 0 0 0 e
315      123.837 3 4 0 400 100 0 0 0 0 e
316      124.647 3 4 0 400 100 0 0 0 0 e
317      125.054 3 4 0 400 100 0 0 0 0 e
318      38.1863 3 4 0 400 100 0 0 0 0 e
319      42.2795 3 4 0 400 100 0 0 0 0 e
320       46.336 3 4 0 400 100 0 0 0 0 e
321      50.3378 3 4 0 400 100 0 0 0 0 e
322      54.2669 3 4 0 400 100 0 0 0 0 e
323      58.1059 3 4 0 400 100 0 0 0 0 e
324      61.8375 3 4 0 400 100 0 0 0 0 e
325      65.4451 3 4 0 400 100 0 0 0 0 e
326      68.9127 3 4 0 400 100 0 0 0 0 e
327      72.2246 3 4 0 400 100 0 0 0 0 e
328      75.3661 3 4 0 400 100 0 0 0 0 e
329      78.3233 3 4 0 400 100 0 0 0 0 e
330      81.0828 3 4 0 400 100 0 0 0 0 e
331      83.6323 3 4 0 400 100 0 0 0 0 e
332      85.9605 3 4 0 400 100 0 0 0 0 e
333       88.057 3 4 0 400 100 0 0 0 0 e
334      89.9124 3 4 0 400 100 0 0 0 0 e
335      91.5184 3 4 0 400 100 0 0 0 0 e
336      92.8678 3 4 0 400 100 0 0 0 0 e
337      93.9547 3 4 0 400 100 0 0 0 0 e
338      94.7741 3 4 0 400 100 0 0 0 0 e
339      95.3224 3 4 0 400 100 0 0 0 0 e
340      95.5972 3 4 0 400 100 0 0 0 0 e
341          600 37 38 0 1500 100 0 0 0 1.5708 e
342          250 50 51 0 2000 100 0 0 0 1.5708 r
343          250 50 51 0 2000 100 0 0 0 -1.5708 r
344          600 45 46 0 1500 100 0 0 0 1.5708 e
345      39.5003 3 4 0 400 100 0 0 0 0 e
346      44.9015 3 4 0 400 100 0 0 0 0 e
347      50.2544 3 4 0 400 100 0 0 0 0 e
348      55.5351 3 4 0 400 100 0 0 0 0 e
349      60.7199 3 4 0 400 100 0 0 0 0 e
350      65.7857 3 4 0 400 100 0 0 0 0 e
351      70.7099 3 4 0 400 100 0 0 0 0 e
352      75.4704 3 4 0 400 100 0 0 0 0 e
353      80.0461 3 4 0 400 100 0 0 0 0 e
354      84.4164 3 4 0 400 100 0 0 0 0 e
355       88.562 3 4 0 400 100 0 0 0 0 e
356      92.4641 3 4 0 400 100 0 0 0 0 e
357      96.1055 3 4 0 400 100 0 0 0 0 e
358      99.4698 3 4 0 400 100 0 0 0 0 e
359      102.542 3 4 0 400 100 0 0 0 0 e
360      105.309 3 4 0 400 100 0 0 0 0 e
361      107.757 3 4 0 400 100 0 0 0 0 e
362      109.876 3 4 0 400 100 0 0 0 0 e
363      111.657 3 4 0 400 100 0 0 0 0 e
364      113.091 3 4 0 400 100 0 0 0 0 e
365      114.172 3 4 0 400 100 0 0 0 0 e
366      114.896 3 4 0 400 100 0 0 0 0 e
367      115.258 3 4 0 400 100 0 0 0 0 e
368      36.7531 3 4 0 400 100 0 0 0 0 e
369      39.4194 3 4 0 400 100 0 0 0 0 e
370      42.0619 3 4 0 400 100 0 0 0 0 e
371      44.6687 3 4 0 400 100 0 0 0 0 e
372      47.2282 3 4 0 400 100 0 0 0 0 e
373      49.7289 3 4 0 400 100 0 0 0 0 e
374      52.1598 3 4 0 400 100 0 0 0 0 e
375      54.5098 3 4 0 400 100 0 0 0 0 e
376      56.7686 3 4 0 400 100 0 0 0 0 e
377       58.926 3 4 0 400 100 0 0 0 0 e
378      60.9725 3 4 0 400 100 0 0 0 0 e
379      62.8988 3 4 0 400 100 0 0 0 0 e
380      64.6964 3 4 0 400 100 0 0 0 0 e
381      66.3572 3 4 0 400 100 0 0 0 0 e
382      67.8738 3 4 0 400 100 0 0 0 0 e
383      69.2395 3 4 0 400 100 0 0 0 0 e
384      70.4481 3 4 0 400 100 0 0 0 0 e
385      71.4943 3 4 0 400 100 0 0 0 0 e
386      72.3733 3 4 0 400 100 0 0 0 0 e
387      73.0813 3 4 0 400 100 0 0 0 0 e
388      73.6151 3 4 0 400 100 0 0 0 0 e
389      73.9723 3 4 0 400 100 0 0 0 0 e
390      74.1513 3 4 0 400 100 0 0 0 0 e

# Format of arbitrary gradients:
#   time_shape_id of 0 means default timing (stepping with grad_raster starting at 1/2 of grad_raster)
# id amplitude first last amp_shape_id time_shape_id delay
# ..      Hz/m  Hz/m Hz/m        ..         ..          us
[GRADIENTS]
4 -1.05993e+06            0            0 5 0 10
5  1.04624e+06            0            0 6 0 10
7  1.05997e+06            0            0 7 0 10
8  -1.0184e+06            0            0 8 0 10
9  -1.0519e+06            0            0 9 0 10
10 -1.05997e+06            0            0 10 0 10
11   1.0184e+06            0            0 8 0 10
12  1.06186e+06            0            0 11 0 10
13 -1.05756e+06            0            0 12 0 10
14 -1.05996e+06            0            0 13 0 10
15  1.02392e+06            0            0 14 0 10
16  1.05756e+06            0            0 12 0 10
17 -1.02943e+06            0            0 15 0 10
18 -1.05979e+06            0            0 16 0 10
19 -1.05948e+06            0            0 17 0 10
20  1.05998e+06            0            0 18 0 10
21  1.05979e+06            0            0 16 0 10
22 -1.05995e+06            0            0 19 0 10
23  1.03898e+06            0            0 20 0 10
24  1.03497e+06            0            0 21 0 10
25  1.05998e+06            0            0 22 0 10
26 -1.03898e+06            0            0 20 0 10
27 -1.05993e+06            0            0 23 0 10
28  1.04059e+06            0            0 24 0 10
29  1.05985e+06            0            0 25 0 10
30  -1.0106e+06            0            0 26 0 10
31 -1.04059e+06            0            0 24 0 10
32  1.01289e+06            0            0 27 0 10
33  1.05986e+06            0            0 28 0 10
34  1.05993e+06            0            0 5 0 10
35 -1.04624e+06            0            0 6 0 10
36 -1.05986e+06            0            0 28 0 10
37   1.0519e+06            0            0 9 0 10
38  1.05997e+06            0            0 10 0 10
39 -1.05997e+06            0            0 7 0 10
40  1.05996e+06            0            0 13 0 10
41 -1.02392e+06            0            0 14 0 10
42 -1.06186e+06            0            0 11 0 10
43  1.05948e+06            0            0 17 0 10
44 -1.05998e+06            0            0 18 0 10
45  1.02943e+06            0            0 15 0 10
46 -1.03497e+06            0            0 21 0 10
47 -1.05998e+06            0            0 22 0 10
48  1.05995e+06            0            0 19 0 10
49 -1.05985e+06            0            0 25 0 10
50   1.0106e+06            0            0 26 0 10
51  1.05993e+06            0            0 23 0 10
52 -1.01289e+06            0            0 27 0 10

# Format of trapezoid gradients:
# id amplitude rise flat fall delay
# ..      Hz/m   us   us   us    us
[TRAP]
 1  1.05263e+06 240  710 240   0
 2       312500  50  800  50  50
 3      -948661 140    0 140   0
 6       509983  80  640  80 3070
53  1.04167e+06 240  360 240   0
54  1.05576e+06 240 4090 240   0
55  1.05263e+06 240  710 240 260
56  1.05576e+06 240 4090 240 260
57  1.36869e+06 240 1430 240   0
58  1.36869e+06 240 1430 240 260

# Format of ADC events:
# id num dwell delay freqPPM phasePPM freq phase phase_id
# ..  ..    ns    us     ppm  rad/MHz   Hz   rad       ..
[ADC]
1 1600 1900 10 0 0 0 0 0
2 1600 1900 10 0 0 0 1.5708 0

# Sequence Shapes
[SHAPES]

shape_id 1
num_samples 10000
0.0993279274
0.099387247
0.0994466016
0.0995059914
0.0995654162
0.0996248762
0.0996843713
0.0997439016
0.0998034671
0.0998630678
0.0999227038
0.0999823749
0.100042081
0.100101823
0.1001616
0.100221413
0.10028126
0.100341144
0.100401062
0.100461016
0.100521005
0.10058103
0.100641091
0.100701186
0.100761318
0.100821485
0.100881687
0.100941925
0.101002199
0.101062508
0.101122853
0.101183233
0.10124365
0.101304101
0.101364589
0.101425112
0.101485672
0.101546267
0.101606897
0.101667564
0.101728266
0.101789004
0.101849779
0.101910589
0.101971435
0.102032316
0.102093234
0.102154188
0.102215178
0.102276204
